#fugacity[kPa]	canonical_work_function
    6.19236e-05	       -23.6919
    7.24304e-05	       -23.6919
    8.47199e-05	       -23.8486
    9.90947e-05	        -24.162
    0.000115908	       -24.6322
    0.000135575	       -25.2591
    0.000158579	       -26.0427
    0.000185485	       -26.9831
    0.000216957	       -28.0801
    0.000253769	       -29.3339
    0.000296827	       -30.7445
    0.000347191	       -32.3117
      0.0004061	       -34.0357
    0.000475005	       -35.9164
      0.0005556	       -37.9538
    0.000649871	        -40.148
    0.000760137	       -42.4988
    0.000889113	       -45.0064
     0.00103997	       -47.6708
     0.00121643	       -50.4918
     0.00142282	       -53.4696
     0.00166424	       -56.6041
     0.00194662	       -59.8953
     0.00227691	       -63.3432
     0.00266324	       -66.9479
     0.00311512	       -70.7093
     0.00364367	       -74.6274
     0.00426191	       -78.7023
     0.00459718	       -80.7469
     0.00491192	       -82.6011
     0.00524821	       -84.5215
     0.00560753	       -86.5082
     0.00599144	       -88.5611
     0.00640164	       -90.6802
     0.00683993	       -92.8656
     0.00730822	       -95.1171
     0.00780857	       -97.4349
     0.00834318	       -99.8189
     0.00891439	       -102.269
     0.00952471	       -104.786
      0.0101768	       -107.368
      0.0108736	       -110.017
       0.011618	       -112.732
      0.0124134	       -115.514
      0.0132633	       -118.361
      0.0141714	       -121.275
      0.0151416	       -124.255
      0.0161783	       -127.301
      0.0172859	       -130.414
      0.0184694	       -133.592
      0.0197339	       -136.837
      0.0210487	       -140.062
      0.0221872	       -142.749
      0.0233873	       -145.488
      0.0246523	        -148.28
      0.0259858	       -151.125
      0.0273913	       -154.022
      0.0288729	       -156.972
      0.0304347	       -159.975
      0.0320809	        -163.03
      0.0338161	       -166.138
      0.0356452	       -169.299
      0.0375733	       -172.512
      0.0396056	       -175.778
      0.0417479	       -179.097
       0.044006	       -182.468
      0.0463863	       -185.892
      0.0488953	       -189.369
      0.0515401	       -192.898
      0.0543279	        -196.48
      0.0572664	       -200.115
       0.060364	       -203.802
      0.0636291	       -207.543
      0.0670707	       -211.335
      0.0706986	       -215.181
      0.0745227	       -219.079
      0.0785536	        -223.03
      0.0828025	       -227.033
      0.0872813	       -231.089
      0.0912321	       -234.543
      0.0948859	       -237.645
       0.098686	       -240.786
       0.102638	       -243.967
       0.106749	       -247.187
       0.111024	       -250.446
       0.115471	       -253.745
       0.120095	       -257.083
       0.124905	        -260.46
       0.129907	       -263.876
        0.13511	       -267.332
       0.140521	       -270.827
       0.146149	       -274.361
       0.152002	       -277.934
        0.15809	       -281.547
       0.164421	       -285.199
       0.171007	        -288.89
       0.177855	       -292.621
       0.184978	        -296.39
       0.192387	       -300.199
       0.200092	       -304.048
       0.208105	       -307.935
        0.21644	       -311.862
       0.224483	       -315.547
       0.231838	       -318.836
       0.239435	       -322.157
        0.24728	        -325.51
       0.255383	       -328.895
       0.263751	       -332.313
       0.272393	       -335.763
       0.281319	       -339.245
       0.290537	       -342.759
       0.300057	       -346.306
       0.309889	       -349.884
       0.320043	       -353.495
        0.33053	       -357.139
        0.34136	       -360.814
       0.352545	       -364.522
       0.364097	       -368.262
       0.376027	       -372.034
       0.388349	       -375.839
       0.401074	       -379.676
       0.414216	       -383.544
       0.427788	       -387.446
       0.441806	       -391.379
       0.456282	       -395.345
       0.471233	       -399.343
       0.488029	       -403.721
       0.508684	       -408.943
       0.530212	       -414.208
       0.552651	       -419.513
       0.576041	       -424.861
        0.60042	       -430.249
       0.625831	       -435.679
       0.652317	       -441.151
       0.679924	       -446.664
         0.7087	       -452.218
       0.738693	       -457.814
       0.769956	       -463.451
       0.802542	        -469.13
       0.836507	        -474.85
       0.871909	       -480.612
        0.90881	       -486.415
       0.947272	       -492.259
       0.987362	       -498.145
        1.02915	       -504.073
         1.0727	       -510.042
         1.1181	       -516.052
        1.16542	       -522.104
        1.21475	       -528.197
        1.26616	       -534.332
        1.31974	       -540.508
         1.3756	       -546.726
        1.43381	       -552.985
        1.48562	       -558.379
        1.53555	       -563.437
        1.58715	       -568.528
         1.6405	       -573.652
        1.69563	       -578.808
        1.75262	       -583.998
        1.81153	       -589.221
        1.87241	       -594.477
        1.93534	       -599.767
        2.00039	       -605.089
        2.06762	       -610.444
        2.13711	       -615.832
        2.20894	       -621.254
        2.28318	       -626.708
        2.35992	       -632.195
        2.43923	       -637.716
        2.52121	       -643.269
        2.60595	       -648.856
        2.69353	       -654.476
        2.78406	       -660.129
        2.87763	       -665.814
        2.97435	       -671.533
        3.06957	       -677.017
        3.12162	       -679.959
        3.17455	       -682.918
        3.22838	       -685.894
        3.28312	       -688.887
        3.33879	       -691.897
         3.3954	       -694.923
        3.45298	       -697.967
        3.51153	       -701.027
        3.57107	       -704.104
        3.63162	       -707.198
         3.6932	       -710.308
        3.75582	       -713.436
         3.8195	        -716.58
        3.88427	       -719.741
        3.95013	       -722.919
        4.01711	       -726.113
        4.08522	       -729.325
        4.15449	       -732.553
        4.22494	       -735.798
        4.29657	        -739.06
        4.36943	       -742.339
        4.44352	       -745.634
        4.51886	       -748.947
        4.59548	       -752.276
        4.66146	       -755.112
        4.70701	       -757.057
          4.753	       -759.012
        4.79944	       -760.976
        4.84634	        -762.95
         4.8937	       -764.934
        4.94152	       -766.927
         4.9898	        -768.93
        5.03856	       -770.943
        5.08779	       -772.966
        5.13751	       -774.998
        5.18771	        -777.04
         5.2384	       -779.092
        5.28958	       -781.153
        5.34127	       -783.224
        5.39346	       -785.305
        5.44616	       -787.396
        5.49938	       -789.496
        5.55312	       -791.606
        5.60738	       -793.726
        5.66217	       -795.856
         5.7175	       -797.995
        5.77336	       -800.144
        5.82978	       -802.303
        5.88674	       -804.471
        5.94427	       -806.649
        6.00117	       -808.793
        6.04617	       -810.481
         6.0915	       -812.177
        6.13717	        -813.88
        6.18319	       -815.591
        6.22955	       -817.309
        6.27625	       -819.034
        6.32331	       -820.767
        6.37072	       -822.508
        6.41849	       -824.255
        6.46661	       -826.011
        6.51509	       -827.774
        6.56394	       -829.544
        6.61316	       -831.322
        6.66274	       -833.107
         6.7127	         -834.9
        6.76303	         -836.7
        6.81373	       -838.508
        6.86482	       -840.323
        6.91629	       -842.145
        6.96815	       -843.976
        7.02039	       -845.813
        7.07303	       -847.658
        7.12606	       -849.511
        7.17949	       -851.371
        7.23332	       -853.238
        7.28747	        -855.11
        7.34108	       -856.957
        7.39509	       -858.812
         7.4495	       -860.674
         7.5043	       -862.543
        7.55951	       -864.419
        7.61512	       -866.303
        7.67115	       -868.194
        7.72758	       -870.092
        7.78443	       -871.998
         7.8417	       -873.911
        7.89939	       -875.832
        7.95751	        -877.76
        8.01605	       -879.695
        8.07502	       -881.637
        8.13443	       -883.587
        8.19427	       -885.544
        8.25456	       -887.508
        8.31528	        -889.48
        8.37646	       -891.459
        8.43808	       -893.446
        8.50016	       -895.439
        8.56269	        -897.44
        8.62569	       -899.449
        8.68915	       -901.465
        8.76147	       -903.752
        8.84083	        -906.25
         8.9209	       -908.757
         9.0017	       -911.272
        9.08323	       -913.797
        9.16549	        -916.33
        9.24851	       -918.873
        9.33227	       -921.424
        9.41679	       -923.985
        9.50208	       -926.555
        9.58815	       -929.133
        9.67499	       -931.721
        9.76261	       -934.318
        9.85103	       -936.924
        9.94026	       -939.538
        10.0303	       -942.162
        10.1211	       -944.795
        10.2128	       -947.437
        10.3053	       -950.087
        10.3986	       -952.747
        10.4928	       -955.416
        10.5878	       -958.094
        10.6837	       -960.781
        10.7805	       -963.477
        10.8781	       -966.182
        10.9827	        -969.06
        11.1053	       -972.413
        11.2292	       -975.776
        11.3546	        -979.15
        11.4813	       -982.536
        11.6095	       -985.933
         11.739	        -989.34
        11.8701	       -992.759
        12.0026	       -996.189
        12.1365	        -999.63
         12.272	       -1003.08
         12.409	       -1006.55
        12.5475	       -1010.02
        12.6876	       -1013.51
        12.8292	          -1017
        12.9724	       -1020.51
        13.1172	       -1024.03
        13.2636	       -1027.56
        13.4116	        -1031.1
        13.5613	       -1034.65
        13.7127	       -1038.21
        13.8658	       -1041.79
        14.0205	       -1045.37
        14.1735	       -1048.89
        14.3165	       -1052.15
         14.461	       -1055.43
        14.6069	       -1058.71
        14.7543	          -1062
        14.9032	       -1065.31
        15.0536	       -1068.62
        15.2055	       -1071.94
        15.3589	       -1075.28
        15.5139	       -1078.62
        15.6705	       -1081.97
        15.8286	       -1085.34
        15.9884	       -1088.71
        16.1497	       -1092.09
        16.3127	       -1095.49
        16.4773	       -1098.89
        16.6436	       -1102.31
        16.8115	       -1105.73
        16.9812	       -1109.16
        17.1525	       -1112.61
        17.3256	       -1116.06
        17.5005	       -1119.53
        17.6771	          -1123
        17.8555	       -1126.48
        18.0356	       -1129.98
        18.2092	       -1133.32
        18.3458	       -1135.94
        18.4834	       -1138.56
         18.622	       -1141.19
        18.7617	       -1143.83
        18.9024	       -1146.47
        19.0441	       -1149.12
        19.1869	       -1151.78
        19.3308	       -1154.45
        19.4758	       -1157.13
        19.6219	       -1159.81
         19.769	        -1162.5
        19.9173	       -1165.19
        20.0667	        -1167.9
        20.2172	       -1170.61
        20.3688	       -1173.33
        20.5215	       -1176.06
        20.6754	       -1178.79
        20.8305	       -1181.54
        20.9867	       -1184.29
        21.1441	       -1187.04
        21.3027	       -1189.81
        21.4625	       -1192.58
        21.6234	       -1195.36
        21.7856	       -1198.15
        21.9315	       -1200.64
         22.045	       -1202.58
         22.159	       -1204.52
        22.2736	       -1206.46
        22.3888	       -1208.41
        22.5046	       -1210.37
         22.621	       -1212.33
         22.738	       -1214.29
        22.8556	       -1216.26
        22.9739	       -1218.24
        23.0927	       -1220.22
        23.2121	       -1222.21
        23.3322	        -1224.2
        23.4529	        -1226.2
        23.5742	        -1228.2
        23.6961	        -1230.2
        23.8187	       -1232.22
        23.9419	       -1234.23
        24.0657	       -1236.26
        24.1902	       -1238.28
        24.3153	       -1240.32
        24.4411	       -1242.35
        24.5675	        -1244.4
        24.6946	       -1246.44
        24.8223	        -1248.5
        24.9446	       -1250.46
        25.0313	       -1251.85
        25.1184	       -1253.24
        25.2057	       -1254.63
        25.2934	       -1256.03
        25.3813	       -1257.44
        25.4696	       -1258.84
        25.5582	       -1260.25
         25.647	       -1261.66
        25.7362	       -1263.08
        25.8257	        -1264.5
        25.9155	       -1265.92
        26.0056	       -1267.35
        26.0961	       -1268.78
        26.1868	       -1270.21
        26.2779	       -1271.65
        26.3692	       -1273.09
        26.4609	       -1274.54
        26.5529	       -1275.98
        26.6453	       -1277.43
        26.7379	       -1278.89
        26.8309	       -1280.35
        26.9242	       -1281.81
        27.0178	       -1283.27
        27.1118	       -1284.74
         27.191	       -1285.98
        27.2549	       -1286.98
         27.319	       -1287.98
        27.3832	       -1288.98
        27.4476	       -1289.98
        27.5121	       -1290.99
        27.5768	          -1292
        27.6416	       -1293.01
        27.7065	       -1294.03
        27.7717	       -1295.04
         27.837	       -1296.06
        27.9024	       -1297.08
         27.968	       -1298.11
        28.0337	       -1299.13
        28.0996	       -1300.16
        28.1657	       -1301.19
        28.2319	       -1302.23
        28.2982	       -1303.26
        28.3647	        -1304.3
        28.4314	       -1305.34
        28.4983	       -1306.38
        28.5652	       -1307.43
        28.6324	       -1308.47
        28.6997	       -1309.52
        28.7671	       -1310.57
        28.8348	       -1311.63
        28.9042	       -1312.71
        28.9741	        -1313.8
        29.0442	       -1314.89
        29.1145	       -1315.99
         29.185	       -1317.09
        29.2557	       -1318.19
        29.3265	       -1319.29
        29.3975	       -1320.39
        29.4686	        -1321.5
        29.5399	       -1322.61
        29.6114	       -1323.72
        29.6831	       -1324.84
         29.755	       -1325.95
         29.827	       -1327.07
        29.8992	       -1328.19
        29.9715	       -1329.32
        30.0441	       -1330.44
        30.1168	       -1331.57
        30.1897	       -1332.71
        30.2628	       -1333.84
         30.336	       -1334.98
        30.4095	       -1336.11
        30.4642	       -1336.96
        30.4937	       -1337.42
        30.5232	       -1337.88
        30.5527	       -1338.34
        30.5823	        -1338.8
        30.6119	       -1339.26
        30.6415	       -1339.72
        30.6711	       -1340.19
        30.7008	       -1340.65
        30.7305	       -1341.11
        30.7603	       -1341.58
          30.79	       -1342.05
        30.8198	       -1342.52
        30.8497	       -1342.99
        30.8795	       -1343.46
        30.9094	       -1343.93
        30.9393	        -1344.4
        30.9692	       -1344.87
        30.9992	       -1345.35
        31.0292	       -1345.82
        31.0592	        -1346.3
        31.0893	       -1346.77
        31.1194	       -1347.25
        31.1495	       -1347.73
        31.1848	       -1348.29
        31.2202	       -1348.86
        31.2558	       -1349.42
        31.2913	       -1349.99
        31.3269	       -1350.56
        31.3626	       -1351.13
        31.3983	        -1351.7
         31.434	       -1352.27
        31.4568	       -1352.64
        31.4718	       -1352.88
        31.4868	       -1353.12
        31.5019	       -1353.36
         31.517	        -1353.6
         31.532	       -1353.85
        31.5471	       -1354.09
        31.5622	       -1354.34
        31.5772	       -1354.58
        31.5923	       -1354.83
        31.5906	        -1354.8
        31.5874	       -1354.74
        31.5841	       -1354.69
        31.5809	       -1354.64
        31.5776	       -1354.58
        31.5744	       -1354.53
        31.5711	       -1354.48
        31.5679	       -1354.42
        31.5646	       -1354.37
        31.5614	       -1354.32
         31.533	       -1353.85
        31.4975	       -1353.25
         31.462	       -1352.66
        31.4266	       -1352.07
        31.3912	       -1351.47
        31.3559	       -1350.88
        31.3206	       -1350.28
        31.2853	       -1349.68
        31.2501	       -1349.08
        31.2149	       -1348.48
        31.1797	       -1347.88
        31.1171	        -1346.8
        31.0472	        -1345.6
        30.9774	       -1344.39
        30.9078	       -1343.18
        30.8384	       -1341.97
        30.7691	       -1340.75
           30.7	       -1339.54
         30.631	       -1338.32
        30.5622	        -1337.1
        30.4935	       -1335.87
         30.425	       -1334.65
        30.3567	       -1333.42
        30.2128	       -1330.82
        30.0416	       -1327.71
        29.8713	       -1324.58
        29.7019	       -1321.46
        29.5336	       -1318.33
        29.3662	       -1315.19
        29.1997	       -1312.04
        29.0342	        -1308.9
        28.8696	       -1305.74
         28.706	       -1302.58
        28.5432	       -1299.41
        28.3814	       -1296.24
        28.2206	       -1293.06
        28.0606	       -1289.88
        27.9015	       -1286.69
        27.7434	        -1283.5
        27.5797	       -1280.16
        27.3735	       -1275.93
        27.1688	       -1271.69
        26.9657	       -1267.44
         26.764	       -1263.19
        26.5639	       -1258.93
        26.3653	       -1254.66
        26.1682	       -1250.38
        25.9725	       -1246.09
        25.7783	        -1241.8
        25.5856	        -1237.5
        25.3943	       -1233.19
        25.2044	       -1228.88
         25.016	       -1224.55
        24.8289	       -1220.22
        24.6433	       -1215.88
         24.459	       -1211.54
        24.2761	       -1207.19
        24.0946	       -1202.83
        23.9199	       -1198.59
        23.7539	       -1194.53
        23.5891	       -1190.46
        23.4254	       -1186.39
        23.2629	       -1182.31
        23.1014	       -1178.22
        22.9411	       -1174.13
        22.7819	       -1170.03
        22.6238	       -1165.92
        22.4668	        -1161.8
        22.3109	       -1157.68
        22.1561	       -1153.55
        22.0024	       -1149.41
        21.8497	       -1145.27
        21.6981	       -1141.12
        21.5475	       -1136.96
        21.3758	       -1132.18
        21.1477	       -1125.75
         20.922	       -1119.32
        20.6987	       -1112.87
        20.4778	       -1106.41
        20.2593	       -1099.94
        20.0431	       -1093.46
        19.8292	       -1086.97
        19.6176	       -1080.46
        19.4082	       -1073.95
        19.2011	       -1067.43
        18.9961	       -1060.89
        18.7934	       -1054.35
        18.5929	       -1047.79
        18.3944	       -1041.23
        18.1981	       -1034.65
        18.0039	       -1028.06
        17.8118	       -1021.46
        17.6217	       -1014.85
        17.4336	       -1008.23
          17.25	       -1001.69
        17.0722	       -995.277
        16.8963	       -988.853
        16.7221	       -982.419
